Average Diode Voltage (V),Average Current Through Diode (A),Diode 1 Voltage(V),Diode 2 Voltage(V),Diode 3 Voltage(V),Current Through Diode 1 (A),Current Through Diode 2 (A),Current Through Diode 3 (A),Input Voltage
0.3233259481903818,0.00024450860074139337,0.3111249690133862,0.32942643777887953,0.32942643777887953,0.0007335258022241802,0.0,0.0,0.32942643777887953
0.3477279065443728,-0.00012225430037069652,0.3477279065443728,0.3477279065443728,0.3477279065443728,-0.00036676290111208954,0.0,0.0,0.3477279065443728
0.3660293753098662,0.00036676290111209024,0.3660293753098661,0.3660293753098661,0.3660293753098661,0.0007335258022241812,0.0,0.00036676290111208954,0.3660293753098661
0.3843308440753594,0.0006112715018534847,0.3843308440753594,0.3843308440753594,0.3843308440753594,0.0011002887033362708,0.00036676290111209176,0.00036676290111209176,0.3843308440753594
0.4026323128408527,0.0019560688059311487,0.40263231284085277,0.40263231284085277,0.40263231284085277,0.0022005774066725416,0.001833814505560452,0.001833814505560452,0.40263231284085277
0.4209337816063461,0.0024450860074139353,0.4209337816063461,0.4209337816063461,0.4209337816063461,0.0022005774066725416,0.0025673403077846324,0.0025673403077846324,0.4209337816063461
0.4392352503718393,0.003912137611862297,0.4392352503718393,0.4392352503718393,0.4392352503718393,0.004034391912232995,0.004034391912232995,0.003667629011120904,0.4392352503718393
0.475838187902826,0.005868206417793442,0.475838187902826,0.475838187902826,0.475838187902826,0.005868206417793442,0.005868206417793442,0.005868206417793442,0.475838187902826
0.4941396566683193,0.008313292425207378,0.4941396566683193,0.4941396566683193,0.4941396566683193,0.008435546725578075,0.008435546725578075,0.008068783824465986,0.4941396566683193
0.5124411254338126,0.011736412835586888,0.5124411254338126,0.5124411254338126,0.5124411254338126,0.01210317573669898,0.010636124132250617,0.01246993863781107,0.5124411254338126
0.5307425941993059,0.018704907956716605,0.5307425941993059,0.5307425941993059,0.5307425941993059,0.018704907956716605,0.018704907956716605,0.018704907956716605,0.5307425941993059
0.5490440629647992,0.02493987727562214,0.5490440629647992,0.5490440629647992,0.5490440629647992,0.02310606277006169,0.02604016597895841,0.025673403077846317,0.5490440629647992
0.5673455317302925,0.03618727290972625,0.5673455317302925,0.5673455317302925,0.5673455317302925,0.035942764308984854,0.03740981591343322,0.03520923850676067,0.5673455317302925
0.5856470004957858,0.04853495724716662,0.5856470004957858,0.5856470004957858,0.5856470004957858,0.04767917714457173,0.0495129916501322,0.04841270294679592,0.5856470004957858
0.6039484692612792,0.06455027059572792,0.6039484692612792,0.6039484692612792,0.6039484692612792,0.06418350769461581,0.06565055929906417,0.06381674479350373,0.6039484692612792
nan,nan,nan,nan,nan,nan,nan,nan,0.6222499380267724
nan,nan,nan,nan,nan,nan,nan,nan,0.6405514067922657
nan,nan,nan,nan,nan,nan,nan,nan,0.6588528755577591
nan,nan,nan,nan,nan,nan,nan,nan,0.6771543443232523
nan,nan,nan,nan,nan,nan,nan,nan,0.713757281854239
nan,nan,nan,nan,nan,nan,nan,nan,0.7320587506197322
nan,nan,nan,nan,nan,nan,nan,nan,0.7503602193852256
nan,nan,nan,nan,nan,nan,nan,nan,0.7686616881507188
nan,nan,nan,nan,nan,nan,nan,nan,0.7869631569162121
nan,nan,nan,nan,nan,nan,nan,nan,0.8052646256817055
nan,nan,nan,nan,nan,nan,nan,nan,0.8235660944471987
nan,nan,nan,nan,nan,nan,nan,nan,0.8418675632126922
nan,nan,nan,nan,nan,nan,nan,nan,0.8601690319781855
nan,nan,nan,nan,nan,nan,nan,nan,0.8784705007436786
nan,nan,nan,nan,nan,nan,nan,nan,0.896771969509172
nan,nan,nan,nan,nan,nan,nan,nan,0.9150734382746653
nan,nan,nan,nan,nan,nan,nan,nan,0.951676375805652
nan,nan,nan,nan,nan,nan,nan,nan,0.9699778445711453
nan,nan,nan,nan,nan,nan,nan,nan,0.9882793133366387
nan,nan,nan,nan,nan,nan,nan,nan,1.0065807821021318
nan,nan,nan,nan,nan,nan,nan,nan,1.0248822508676252
nan,nan,nan,nan,nan,nan,nan,nan,1.0431837196331184
nan,nan,nan,nan,nan,nan,nan,nan,1.0614851883986118
nan,nan,nan,nan,nan,nan,nan,nan,1.079786657164105
nan,nan,nan,nan,nan,nan,nan,nan,1.0980881259295985
nan,nan,nan,nan,nan,nan,nan,nan,1.1163895946950917
nan,nan,nan,nan,nan,nan,nan,nan,1.134691063460585
nan,nan,nan,nan,nan,nan,nan,nan,1.1529925322260783
nan,nan,nan,nan,nan,nan,nan,nan,1.189595469757065
nan,nan,nan,nan,nan,nan,nan,nan,1.2078969385225584
nan,nan,nan,nan,nan,nan,nan,nan,1.2261984072880516
nan,nan,nan,nan,nan,nan,nan,nan,1.2444998760535448
nan,nan,nan,nan,nan,nan,nan,nan,1.262801344819038
nan,nan,nan,nan,nan,nan,nan,nan,1.2811028135845315
nan,nan,nan,nan,nan,nan,nan,nan,1.2994042823500247
nan,nan,nan,nan,nan,nan,nan,nan,1.3177057511155181
nan,nan,nan,nan,nan,nan,nan,nan,1.3360072198810116
nan,nan,nan,nan,nan,nan,nan,nan,1.3543086886465046
nan,nan,nan,nan,nan,nan,nan,nan,1.372610157411998
nan,nan,nan,nan,nan,nan,nan,nan,1.4092130949429846
nan,nan,nan,nan,nan,nan,nan,nan,1.427514563708478
nan,nan,nan,nan,nan,nan,nan,nan,1.4458160324739715
nan,nan,nan,nan,nan,nan,nan,nan,1.4641175012394645
nan,nan,nan,nan,nan,nan,nan,nan,1.4824189700049577
nan,nan,nan,nan,nan,nan,nan,nan,1.5007204387704511
nan,nan,nan,nan,nan,nan,nan,nan,1.5190219075359446
nan,nan,nan,nan,nan,nan,nan,nan,1.5373233763014376
nan,nan,nan,nan,nan,nan,nan,nan,1.555624845066931
nan,nan,nan,nan,nan,nan,nan,nan,1.5739263138324242
nan,nan,nan,nan,nan,nan,nan,nan,1.5922277825979176
nan,nan,nan,nan,nan,nan,nan,nan,1.610529251363411
nan,nan,nan,nan,nan,nan,nan,nan,1.6471321888943975
nan,nan,nan,nan,nan,nan,nan,nan,1.665433657659891
nan,nan,nan,nan,nan,nan,nan,nan,1.6837351264253844
nan,nan,nan,nan,nan,nan,nan,nan,1.7020365951908776
nan,nan,nan,nan,nan,nan,nan,nan,1.720338063956371
nan,nan,nan,nan,nan,nan,nan,nan,1.7386395327218642
nan,nan,nan,nan,nan,nan,nan,nan,1.7569410014873572
nan,nan,nan,nan,nan,nan,nan,nan,1.7752424702528506
nan,nan,nan,nan,nan,nan,nan,nan,1.793543939018344
nan,nan,nan,nan,nan,nan,nan,nan,1.8118454077838375
nan,nan,nan,nan,nan,nan,nan,nan,1.8301468765493305
nan,nan,nan,nan,nan,nan,nan,nan,1.848448345314824
nan,nan,nan,nan,nan,nan,nan,nan,1.8850512828458106
nan,nan,nan,nan,nan,nan,nan,nan,1.903352751611304
nan,nan,nan,nan,nan,nan,nan,nan,1.9216542203767972
nan,nan,nan,nan,nan,nan,nan,nan,1.9399556891422907
nan,nan,nan,nan,nan,nan,nan,nan,1.9582571579077839
nan,nan,nan,nan,nan,nan,nan,nan,1.9765586266732773
nan,nan,nan,nan,nan,nan,nan,nan,1.9948600954387705
nan,nan,nan,nan,nan,nan,nan,nan,2.0131615642042635
nan,nan,nan,nan,nan,nan,nan,nan,2.031463032969757
nan,nan,nan,nan,nan,nan,nan,nan,2.0497645017352504
nan,nan,nan,nan,nan,nan,nan,nan,2.0680659705007436
nan,nan,nan,nan,nan,nan,nan,nan,2.086367439266237
nan,nan,nan,nan,nan,nan,nan,nan,2.1229703767972237
nan,nan,nan,nan,nan,nan,nan,nan,2.141271845562717
nan,nan,nan,nan,nan,nan,nan,nan,2.15957331432821
nan,nan,nan,nan,nan,nan,nan,nan,2.1778747830937037
nan,nan,nan,nan,nan,nan,nan,nan,2.196176251859197
nan,nan,nan,nan,nan,nan,nan,nan,2.21447772062469
nan,nan,nan,nan,nan,nan,nan,nan,2.2327791893901834
nan,nan,nan,nan,nan,nan,nan,nan,2.2510806581556766
nan,nan,nan,nan,nan,nan,nan,nan,2.26938212692117
nan,nan,nan,nan,nan,nan,nan,nan,2.2876835956866635
nan,nan,nan,nan,nan,nan,nan,nan,2.3059850644521567
nan,nan,nan,nan,nan,nan,nan,nan,2.32428653321765
nan,nan,nan,nan,nan,nan,nan,nan,2.3608894707486368
nan,nan,nan,nan,nan,nan,nan,nan,2.37919093951413
nan,nan,nan,nan,nan,nan,nan,nan,2.397492408279623
nan,nan,nan,nan,nan,nan,nan,nan,2.415793877045117
nan,nan,nan,nan,nan,nan,nan,nan,2.43409534581061
nan,nan,nan,nan,nan,nan,nan,nan,2.4523968145761033
nan,nan,nan,nan,nan,nan,nan,nan,2.4706982833415965
nan,nan,nan,nan,nan,nan,nan,nan,2.4889997521070897
nan,nan,nan,nan,nan,nan,nan,nan,2.507301220872583
nan,nan,nan,nan,nan,nan,nan,nan,2.525602689638076
nan,nan,nan,nan,nan,nan,nan,nan,2.5439041584035693
nan,nan,nan,nan,nan,nan,nan,nan,2.580507095934556
nan,nan,nan,nan,nan,nan,nan,nan,2.5988085647000494
nan,nan,nan,nan,nan,nan,nan,nan,2.617110033465543
nan,nan,nan,nan,nan,nan,nan,nan,2.6354115022310363
nan,nan,nan,nan,nan,nan,nan,nan,2.6537129709965295
nan,nan,nan,nan,nan,nan,nan,nan,2.672014439762023
nan,nan,nan,nan,nan,nan,nan,nan,2.6903159085275163
nan,nan,nan,nan,nan,nan,nan,nan,2.708617377293009
nan,nan,nan,nan,nan,nan,nan,nan,2.7269188460585023
nan,nan,nan,nan,nan,nan,nan,nan,2.745220314823996
nan,nan,nan,nan,nan,nan,nan,nan,2.763521783589489
nan,nan,nan,nan,nan,nan,nan,nan,2.7818232523549824
nan,nan,nan,nan,nan,nan,nan,nan,2.8184261898859693
nan,nan,nan,nan,nan,nan,nan,nan,2.8367276586514625
nan,nan,nan,nan,nan,nan,nan,nan,2.855029127416956
nan,nan,nan,nan,nan,nan,nan,nan,2.8733305961824493
nan,nan,nan,nan,nan,nan,nan,nan,2.891632064947943
nan,nan,nan,nan,nan,nan,nan,nan,2.9099335337134358
nan,nan,nan,nan,nan,nan,nan,nan,2.928235002478929
nan,nan,nan,nan,nan,nan,nan,nan,2.946536471244422
nan,nan,nan,nan,nan,nan,nan,nan,2.9648379400099154
nan,nan,nan,nan,nan,nan,nan,nan,2.983139408775409
nan,nan,nan,nan,nan,nan,nan,nan,3.0014408775409023
nan,nan,nan,nan,nan,nan,nan,nan,3.019742346306396
nan,nan,nan,nan,nan,nan,nan,nan,3.0563452838373824
nan,nan,nan,nan,nan,nan,nan,nan,3.074646752602875
nan,nan,nan,nan,nan,nan,nan,nan,3.0929482213683683
nan,nan,nan,nan,nan,nan,nan,nan,3.111249690133862
nan,nan,nan,nan,nan,nan,nan,nan,3.129551158899355
nan,nan,nan,nan,nan,nan,nan,nan,3.1478526276648484
nan,nan,nan,nan,nan,nan,nan,nan,3.166154096430342
nan,nan,nan,nan,nan,nan,nan,nan,3.1844555651958353
nan,nan,nan,nan,nan,nan,nan,nan,3.2027570339613285
nan,nan,nan,nan,nan,nan,nan,nan,3.221058502726822
nan,nan,nan,nan,nan,nan,nan,nan,3.239359971492315
nan,nan,nan,nan,nan,nan,nan,nan,3.257661440257809
nan,nan,nan,nan,nan,nan,nan,nan,3.294264377788795
nan,nan,nan,nan,nan,nan,nan,nan,3.3125658465542887
nan,nan,nan,nan,nan,nan,nan,nan,3.330867315319782
nan,nan,nan,nan,nan,nan,nan,nan,3.349168784085275
nan,nan,nan,nan,nan,nan,nan,nan,3.3674702528507687
nan,nan,nan,nan,nan,nan,nan,nan,3.385771721616262
nan,nan,nan,nan,nan,nan,nan,nan,3.404073190381755
nan,nan,nan,nan,nan,nan,nan,nan,3.422374659147249
nan,nan,nan,nan,nan,nan,nan,nan,3.440676127912742
nan,nan,nan,nan,nan,nan,nan,nan,3.458977596678235
nan,nan,nan,nan,nan,nan,nan,nan,3.4772790654437284
nan,nan,nan,nan,nan,nan,nan,nan,3.4955805342092217
nan,nan,nan,nan,nan,nan,nan,nan,3.532183471740208
nan,nan,nan,nan,nan,nan,nan,nan,3.5504849405057013
nan,nan,nan,nan,nan,nan,nan,nan,3.5687864092711945
nan,nan,nan,nan,nan,nan,nan,nan,3.587087878036688
nan,nan,nan,nan,nan,nan,nan,nan,3.605389346802181
nan,nan,nan,nan,nan,nan,nan,nan,3.623690815567675
nan,nan,nan,nan,nan,nan,nan,nan,3.641992284333168
nan,nan,nan,nan,nan,nan,nan,nan,3.660293753098661
nan,nan,nan,nan,nan,nan,nan,nan,3.6785952218641547
nan,nan,nan,nan,nan,nan,nan,nan,3.696896690629648
nan,nan,nan,nan,nan,nan,nan,nan,3.715198159395141
nan,nan,nan,nan,nan,nan,nan,nan,3.7334996281606347
nan,nan,nan,nan,nan,nan,nan,nan,3.770102565691621
nan,nan,nan,nan,nan,nan,nan,nan,3.788404034457115
nan,nan,nan,nan,nan,nan,nan,nan,3.806705503222608
nan,nan,nan,nan,nan,nan,nan,nan,3.825006971988101
nan,nan,nan,nan,nan,nan,nan,nan,3.8433084407535945
nan,nan,nan,nan,nan,nan,nan,nan,3.8616099095190877
nan,nan,nan,nan,nan,nan,nan,nan,3.8799113782845813
nan,nan,nan,nan,nan,nan,nan,nan,3.8982128470500745
nan,nan,nan,nan,nan,nan,nan,nan,3.9165143158155677
nan,nan,nan,nan,nan,nan,nan,nan,3.9348157845810614
nan,nan,nan,nan,nan,nan,nan,nan,3.9531172533465546
nan,nan,nan,nan,nan,nan,nan,nan,3.989720190877541
nan,nan,nan,nan,nan,nan,nan,nan,4.008021659643034
nan,nan,nan,nan,nan,nan,nan,nan,4.026323128408527
nan,nan,nan,nan,nan,nan,nan,nan,4.044624597174021
nan,nan,nan,nan,nan,nan,nan,nan,4.062926065939514
nan,nan,nan,nan,nan,nan,nan,nan,4.081227534705007
nan,nan,nan,nan,nan,nan,nan,nan,4.099529003470501
nan,nan,nan,nan,nan,nan,nan,nan,4.117830472235994
nan,nan,nan,nan,nan,nan,nan,nan,4.136131941001487
nan,nan,nan,nan,nan,nan,nan,nan,4.15443340976698
nan,nan,nan,nan,nan,nan,nan,nan,4.172734878532474
nan,nan,nan,nan,nan,nan,nan,nan,4.191036347297967
nan,nan,nan,nan,nan,nan,nan,nan,4.227639284828954
nan,nan,nan,nan,nan,nan,nan,nan,4.245940753594447
nan,nan,nan,nan,nan,nan,nan,nan,4.2642422223599405
nan,nan,nan,nan,nan,nan,nan,nan,4.282543691125434
nan,nan,nan,nan,nan,nan,nan,nan,4.300845159890928
nan,nan,nan,nan,nan,nan,nan,nan,4.31914662865642
nan,nan,nan,nan,nan,nan,nan,nan,4.337448097421913
nan,nan,nan,nan,nan,nan,nan,nan,4.3557495661874075
nan,nan,nan,nan,nan,nan,nan,nan,4.374051034952901
nan,nan,nan,nan,nan,nan,nan,nan,4.392352503718394
nan,nan,nan,nan,nan,nan,nan,nan,4.410653972483887
nan,nan,nan,nan,nan,nan,nan,nan,4.42895544124938
